"Wavelength, µm",n,k
0.3,1.0002915988827232,0.0
0.30251256281407035,1.0002912242171311,0.0
0.3050251256281407,1.0002908964561987,0.0
0.307537688442211,1.0002905799849735,0.0
0.3100502512562814,1.0002902635137483,0.0
0.31256281407035175,1.000289947042523,0.0
0.3150753768844221,1.0002896305712978,0.0
0.31758793969849247,1.0002893141000726,0.0
0.3201005025125628,1.0002890437530092,0.0
0.32261306532663314,1.0002887736284098,0.0
0.3251256281407035,1.0002885035038105,0.0
0.32763819095477387,1.000288233379211,0.0
0.33015075376884423,1.0002879632546116,0.0
0.3326633165829146,1.0002877000368353,0.0
0.3351758793969849,1.0002874673678928,0.0
0.33768844221105526,1.0002872346989502,0.0
0.3402010050251256,1.0002870020300079,0.0
0.342713567839196,1.0002867693610653,0.0
0.34522613065326635,1.000286536692123,0.0
0.34773869346733666,1.000286315476046,0.0
0.350251256281407,1.000286113462525,0.0
0.3527638190954774,1.000285911449004,0.0
0.35527638190954774,1.000285709435483,0.0
0.3577889447236181,1.0002855074219619,0.0
0.3603015075376884,1.0002853054084409,0.0
0.3628140703517588,1.0002851176723464,0.0
0.36532663316582914,1.000284941027387,0.0
0.3678391959798995,1.000284764382428,0.0
0.37035175879396987,1.0002845877374686,0.0
0.3728643216080402,1.0002844110925093,0.0
0.37537688442211053,1.00028423444755,0.0
0.3778894472361809,1.0002840737445227,0.0
0.38040201005025126,1.000283918298941,0.0
0.3829145728643216,1.0002837628533592,0.0
0.38542713567839193,1.0002836074077777,0.0
0.3879396984924623,1.000283451962196,0.0
0.39045226130653266,1.0002832965166142,0.0
0.392964824120603,1.0002831578904237,0.0
0.3954773869346734,1.0002830203149984,0.0
0.3979899497487437,1.0002828827395729,0.0
0.40050251256281405,1.0002827451641476,0.0
0.4030150753768844,1.0002826075887221,0.0
0.4055276381909548,1.0002824719930208,0.0
0.40804020100502514,1.0002823495995286,0.0
0.41055276381909545,1.0002822272060363,0.0
0.4130653266331658,1.000282104812544,0.0
0.41557788944723617,1.0002819824190519,0.0
0.41809045226130653,1.0002818600255596,0.0
0.4206030150753769,1.0002817417835308,0.0
0.4231155778894472,1.0002816323795987,0.0
0.42562814070351757,1.0002815229756665,0.0
0.42814070351758793,1.0002814135717344,0.0
0.4306532663316583,1.0002813041678025,0.0
0.43316582914572865,1.0002811947638703,0.0
0.43567839195979896,1.00028109105109,0.0
0.4381909547738694,1.0002809928325982,0.0
0.4407035175879397,1.0002808946141062,0.0
0.44321608040201005,1.0002807963956142,0.0
0.4457286432160804,1.0002806981771222,0.0
0.4482412060301507,1.0002805999586302,0.0
0.45075376884422114,1.0002805085028248,0.0
0.45326633165829144,1.0002804199729958,0.0
0.4557788944723618,1.0002803314431667,0.0
0.45829145728643217,1.000280242913338,0.0
0.4608040201005025,1.000280154383509,0.0
0.4633165829145729,1.00028006585368,0.0
0.4658291457286432,1.000279984809689,0.0
0.46834170854271356,1.0002799047174593,0.0
0.4708542713567839,1.0002798246252296,0.0
0.47336683417085423,1.000279744533,0.0
0.47587939698492465,1.0002796644407703,0.0
0.47839195979899496,1.000279584912736,0.0
0.4809045226130653,1.000279512205263,0.0
0.4834170854271357,1.0002794394977899,0.0
0.485929648241206,1.0002793667903167,0.0
0.4884422110552764,1.0002792940828436,0.0
0.4909547738693467,1.0002792213753704,0.0
0.4934673366834171,1.000279150392477,0.0
0.49597989949748744,1.0002790841781508,0.0
0.49849246231155775,1.0002790179638246,0.0
0.5010050251256282,1.0002789517494983,0.0
0.5035175879396985,1.000278885535172,0.0
0.5060301507537688,1.0002788193208458,0.0
0.5085427135678392,1.0002787557141986,0.0
0.5110552763819095,1.0002786952335554,0.0
0.5135678391959799,1.0002786347529122,0.0
0.5160804020100502,1.000278574272269,0.0
0.5185929648241205,1.000278513791626,0.0
0.521105527638191,1.0002784533109825,0.0
0.5236180904522613,1.000278396103976,0.0
0.5261306532663317,1.0002783407066198,0.0
0.528643216080402,1.0002782853092635,0.0
0.5311557788944723,1.0002782299119073,0.0
0.5336683417085427,1.0002781745145508,0.0
0.536180904522613,1.0002781191171946,0.0
0.5386934673366834,1.0002780674888159,0.0
0.5412060301507537,1.0002780166149565,0.0
0.543718592964824,1.0002779657410972,0.0
0.5462311557788945,1.0002779148672378,0.0
0.5487437185929648,1.0002778639933785,0.0
0.5512562814070352,1.0002778132100023,0.0
0.5537688442211055,1.000277766375575,0.0
0.5562814070351758,1.0002777195411476,0.0
0.5587939698492462,1.0002776727067204,0.0
0.5613065326633166,1.000277625872293,0.0
0.563819095477387,1.0002775790378657,0.0
0.5663316582914573,1.0002775329692215,0.0
0.5688442211055276,1.0002774897538065,0.0
0.571356783919598,1.0002774465383917,0.0
0.5738693467336684,1.0002774033229769,0.0
0.5763819095477387,1.000277360107562,0.0
0.578894472361809,1.0002773168921473,0.0
0.5814070351758793,1.0002772749802813,0.0
0.5839195979899497,1.0002772350172344,0.0
0.5864321608040202,1.0002771950541873,0.0
0.5889447236180905,1.0002771550911402,0.0
0.5914572864321608,1.0002771151280934,0.0
0.5939698492462311,1.0002770751650463,0.0
0.5964824120603015,1.000277036931515,0.0
0.5989949748743719,1.0002769998998509,0.0
0.6015075376884422,1.0002769628681865,0.0
0.6040201005025125,1.0002769258365223,0.0
0.6065326633165828,1.000276888804858,0.0
0.6090452261306533,1.0002768517731937,0.0
0.6115577889447237,1.0002768168059006,0.0
0.614070351758794,1.0002767824235832,0.0
0.6165829145728643,1.000276748041266,0.0
0.6190954773869346,1.0002767136589485,0.0
0.621608040201005,1.0002766792766313,0.0
0.6241206030150754,1.000276644894314,0.0
0.6266331658291457,1.0002766128368168,0.0
0.629145728643216,1.0002765808551812,0.0
0.6316582914572864,1.0002765488735457,0.0
0.6341708542713568,1.00027651689191,0.0
0.6366834170854272,1.0002764849102745,0.0
0.6391959798994975,1.0002764532723212,0.0
0.6417085427135678,1.000276423471411,0.0
0.6442211055276381,1.0002763936705006,0.0
0.6467336683417085,1.0002763638695904,0.0
0.649246231155779,1.00027633406868,0.0
0.6517587939698493,1.0002763042677698,0.0
0.6542713567839196,1.0002762751554528,0.0
0.6567839195979899,1.000276247340106,0.0
0.6592964824120603,1.0002762195247588,0.0
0.6618090452261307,1.0002761917094118,0.0
0.664321608040201,1.000276163894065,0.0
0.6668341708542713,1.0002761360787178,0.0
0.6693467336683416,1.0002761092345462,0.0
0.671859296482412,1.0002760832310937,0.0
0.6743718592964825,1.0002760572276412,0.0
0.6768844221105528,1.0002760312241887,0.0
0.6793969849246231,1.0002760052207362,0.0
0.6819095477386934,1.0002759792172837,0.0
0.6844221105527638,1.0002759544154314,0.0
0.6869346733668342,1.000275930068901,0.0
0.6894472361809045,1.0002759057223707,0.0
0.6919597989949748,1.0002758813758406,0.0
0.6944723618090451,1.0002758570293102,0.0
0.6969849246231156,1.0002758326827799,0.0
0.699497487437186,1.0002758097245539,0.0
0.7020100502512563,1.0002757868962915,0.0
0.7045226130653266,1.0002757640680293,0.0
0.7070351758793969,1.000275741239767,0.0
0.7095477386934673,1.0002757184115048,0.0
0.7120603015075377,1.0002756957276504,0.0
0.714572864321608,1.000275674293289,0.0
0.7170854271356784,1.0002756528589274,0.0
0.7195979899497487,1.000275631424566,0.0
0.7221105527638191,1.0002756099902044,0.0
0.7246231155778895,1.000275588555843,0.0
0.7271356783919598,1.0002755674968744,0.0
0.7296482412060301,1.0002755473445932,0.0
0.7321608040201004,1.000275527192312,0.0
0.7346733668341708,1.0002755070400309,0.0
0.7371859296482413,1.0002754868877497,0.0
0.7396984924623116,1.0002754667354685,0.0
0.7422110552763819,1.0002754471525788,0.0
0.7447236180904522,1.0002754281816075,0.0
0.7472361809045226,1.000275409210636,0.0
0.749748743718593,1.0002753902396648,0.0
0.7522613065326633,1.0002753712686936,0.0
0.7547738693467336,1.0002753522977221,0.0
0.7572864321608039,1.0002753340585588,0.0
0.7597989949748744,1.0002753161778855,0.0
0.7623115577889448,1.0002752982972123,0.0
0.7648241206030151,1.000275280416539,0.0
0.7673366834170854,1.0002752625358655,0.0
0.7698492462311557,1.0002752446551921,0.0
0.7723618090452261,1.000275227641739,0.0
0.7748743718592965,1.0002752107689925,0.0
0.7773869346733668,1.000275193896246,0.0
0.7798994974874371,1.0002751770234994,0.0
0.7824120603015075,1.000275160150753,0.0
0.7849246231155779,1.0002751433242942,0.0
0.7874371859296483,1.0002751273847732,0.0
0.7899497487437186,1.0002751114452522,0.0
0.7924623115577889,1.0002750955057313,0.0
0.7949748743718593,1.0002750795662103,0.0
0.7974874371859296,1.0002750636266893,0.0
0.8,1.0002750478938138,0.0
