"Wavelength, µm",n,k
0.3,3.727766551724138,2.0045610344827587
0.30251256281407035,3.694124841097379,1.979014487301372
0.3050251256281407,3.6636760335008374,1.9598741273031826
0.307537688442211,3.6367205511216216,1.9447874572207444
0.3100502512562814,3.61289376497874,1.9328758291457286
0.31256281407035175,3.592249900137631,1.92514775053612
0.3150753768844221,3.5744791404226097,1.9195457689066449
0.31758793969849247,3.5597828857249207,1.9166171617345988
0.3201005025125628,3.547651864778438,1.9157653668341708
0.32261306532663314,3.5375442970806414,1.9163623994974874
0.3251256281407035,3.530036231155779,1.9190010385259633
0.32763819095477387,3.524475859530209,1.922824032371158
0.33015075376884423,3.5208952067153954,1.928053473332572
0.3326633165829146,3.5192852856981536,1.934256997346282
0.3351758793969849,3.5196251333591033,1.9415526826439893
0.33768844221105526,3.5220994461437622,1.9498907362901463
0.3402010050251256,3.526235175879397,1.9587739536391635
0.342713567839196,3.5318925532927796,1.9688099566252315
0.34522613065326635,3.539805314135444,1.9799607415314917
0.34773869346733666,3.5493905649380926,1.9911577837641816
0.350251256281407,3.560540187230569,2.002880054077494
0.3527638190954774,3.5738774299357483,2.0169554026350656
0.35527638190954774,3.5889120322199233,2.031169000886787
0.3577889447236181,3.6058904361613897,2.045241372883837
0.3603015075376884,3.6248260050251258,2.0584129020100503
0.3628140703517588,3.646747802864086,2.072252351900347
0.36532663316582914,3.6715025786339104,2.086962792667039
0.3678391959798995,3.6991865994355337,2.102232239966958
0.37035175879396987,3.7309847725050593,2.1184815013983944
0.3728643216080402,3.767808281091556,2.135973214277666
0.37537688442211053,3.811343517366568,2.1545422318641663
0.3778894472361809,3.8638343804173707,2.1746433025388954
0.38040201005025126,3.9267118766911477,2.1965763161963663
0.3829145728643216,4.008017853131204,2.220196856973946
0.38542713567839193,4.10032894951938,2.2452213788861313
0.3879396984924623,4.1946781014124115,2.2707937425812186
0.39045226130653266,4.277797136492177,2.293948233068175
0.392964824120603,4.340427854472361,2.306408303517588
0.3954773869346734,4.385083698333565,2.3012933916618663
0.3979899497487437,4.418797500146647,2.275227489196958
0.40050251256281405,4.446049770279972,2.2303925457402847
0.4030150753768844,4.472117213061505,2.173910188585513
0.4055276381909548,4.502808017992584,2.118344544068658
0.40804020100502514,4.547946229480737,2.069332457286432
0.41055276381909545,4.6160925164712445,2.029215204355109
0.4130653266331658,4.711291341745222,2.00038945622272
0.41557788944723617,4.828710021406671,1.9811662229922176
0.41809045226130653,4.9328033689801325,1.9725789930077433
0.4206030150753769,5.000172470245967,1.9678511441417614
0.4231155778894472,5.031012471179427,1.9567860169358908
0.42562814070351757,5.032560821856724,1.9265072944929431
0.42814070351758793,5.012355943353129,1.8596202010050258
0.4306532663316583,4.978745214945158,1.7378171421893533
0.43316582914572865,4.9380851037579925,1.59996843019082
0.43567839195979896,4.896083981711838,1.4656004254057178
0.4381909547738694,4.854354574971632,1.341195072459068
0.4407035175879397,4.8134879571424,1.230109599750345
0.44321608040201005,4.773722289031364,1.1338664554748665
0.4457286432160804,4.735340726044013,1.0542520826704058
0.4482412060301507,4.699731224388195,0.9875093311760047
0.45075376884422114,4.665402906452996,0.9285867497548709
0.45326633165829144,4.632240921122127,0.8761902242443449
0.4557788944723618,4.6004075802435604,0.8296134967630946
0.45829145728643217,4.5704550378002775,0.7903322244754933
0.4608040201005025,4.541920711135854,0.7541313157624867
0.4633165829145729,4.5146458762201815,0.7209779792641365
0.4658291457286432,4.488646627101023,0.6916575264252298
0.46834170854271356,4.46372477130696,0.6651584271214428
0.4708542713567839,4.439739996350467,0.6399704852474662
0.47336683417085423,4.4166937994919655,0.6159670810094431
0.47587939698492465,4.394840025125628,0.5952591457286428
0.47839195979899496,4.373880066277333,0.5759859902213772
0.4809045226130653,4.353670928579065,0.5579741198011334
0.4834170854271357,4.33450595477387,0.5420300376884422
0.485929648241206,4.315984193407985,0.5267357620121607
0.4884422110552764,4.2979511931751775,0.5119110132055624
0.4909547738693467,4.280778767740512,0.49776405100437604
0.4934673366834171,4.264058127056603,0.48454885302145256
0.49597989949748744,4.247679266582915,0.4720337198492463
0.49849246231155775,4.2322646937185935,0.46028748869346764
0.5010050251256282,4.217198893729733,0.4490257563680471
0.5035175879396985,4.202630980270812,0.4384556645295443
0.5060301507537688,4.188736471366495,0.4287148872381232
0.5085427135678392,4.175114551687007,0.4192316087580761
0.5110552763819095,4.162067171931084,0.41000691385498933
0.5135678391959799,4.149245193532063,0.40147988313935
0.5160804020100502,4.1366706110176175,0.393718594259353
0.5185929648241205,4.124798163397633,0.3862481034203276
0.521105527638191,4.1131580768923985,0.3788650874554177
0.5236180904522613,4.102110776900375,0.37156099328843784
0.5261306532663317,4.091187482065114,0.364321654710076
0.528643216080402,4.08056085225683,0.35723723483788666
0.5311557788944723,4.070215717867236,0.3506903639642415
0.5336683417085427,4.060143474813894,0.34466461156988437
0.536180904522613,4.050309724428595,0.33827848111525377
0.5386934673366834,4.040583674825742,0.33172960771599935
0.5412060301507537,4.031369518522847,0.3254828432861986
0.543718592964824,4.022254174360173,0.3192943957631713
0.5462311557788945,4.013648131092051,0.31389320793154973
0.5487437185929648,4.005080692031587,0.30853832940211273
0.5512562814070352,3.996861022254128,0.30341065018972413
0.5537688442211055,3.988679161237047,0.298406504365515
0.5562814070351758,3.9808746074057666,0.29463514254639944
0.5587939698492462,3.97311787517469,0.2908611816478844
0.5613065326633166,3.9657685050499043,0.28706508082820403
0.563819095477387,3.958450177191567,0.2832313093513991
0.5663316582914573,3.951456796360915,0.279003205583041
0.5688442211055276,3.9444783208261422,0.27478338695374416
0.571356783919598,3.9379895200861994,0.2708357550561155
0.5738693467336684,3.9315007193462566,0.26688812315848687
0.5763819095477387,3.9252795031125776,0.263015381759544
0.578894472361809,3.9190777855696393,0.2591480975774395
0.5814070351758793,3.9130087125756754,0.25557409359411326
0.5839195979899497,3.906973049801108,0.25207396038694385
0.5864321608040202,3.901130965780428,0.24888494266665454
0.5889447236180905,3.895406653013722,0.24588520429797095
0.5914572864321608,3.88982572935098,0.2426188452827518
0.5939698492462311,3.884455568688513,0.23896058921367408
0.5964824120603015,3.879127038821048,0.23528857265602623
0.5989949748743719,3.8740454998654754,0.23153491663845985
0.6015075376884422,3.8689639609099036,0.22778126062089366
0.6040201005025125,3.864051398006984,0.2240363078954092
0.6065326633165828,3.8591710641342303,0.22029301516054856
0.6090452261306533,3.854499066463766,0.21736441291315142
0.6115577889447237,3.8500425074624367,0.2152782750691895
0.614070351758794,3.8455900495965167,0.21317044293126874
0.6165829145728643,3.841174650123582,0.21086657833139644
0.6190954773869346,3.8367592506506476,0.2085627137315241
0.621608040201005,3.83254320694381,0.20614298742516407
0.6241206030150754,3.8284317405207857,0.20366248282881705
0.6266331658291457,3.824379352317141,0.2012165829145728
0.629145728643216,3.8206360662467267,0.19895173756104464
0.6316582914572864,3.8168927801763117,0.19668689220751648
0.6341708542713568,3.813423909116133,0.19432861099978418
0.6366834170854272,3.8101252070166787,0.1919123887844128
0.6391959798994975,3.8068261738769036,0.1894989867382023
0.6417085427135678,3.8035126135942874,0.18720934303094422
0.6442211055276381,3.800199053311671,0.18491969932368615
0.6467336683417085,3.797048944649719,0.18273645307419448
0.649246231155779,3.7941705822494827,0.18073009776825297
0.6517587939698493,3.7912922198492462,0.17872374246231154
0.6542713567839196,3.7882836643649904,0.17673426832001737
0.6567839195979899,3.785210745815408,0.17475313965511016
0.6592964824120603,3.7821378272658253,0.17277201099020284
0.6618090452261307,3.7786172517028014,0.17044216895478798
0.664321608040201,3.775048632868149,0.16807490243885148
0.6668341708542713,3.7714321592770483,0.16571274938227043
0.6693467336683416,3.7672746313056997,0.16340841000583028
0.671859296482412,3.7631171033343516,0.16110407062939003
0.6743718592964825,3.7589860769434216,0.1587574634305128
0.6768844221105528,3.754961229358669,0.1562415098434141
0.6793969849246231,3.750936381773917,0.15372555625631534
0.6819095477386934,3.747002706531336,0.15110732951414943
0.6844221105527638,3.743341733236858,0.1481831976261758
0.6869346733668342,3.73968075994238,0.14525906573820213
0.6894472361809045,3.7360952283380726,0.1422653216340098
0.6919597989949748,3.732751636996351,0.1390483322945477
0.6944723618090451,3.7294080456546297,0.13583134295508562
0.6969849246231156,3.7260942223125744,0.13271708701535495
0.699497487437186,3.722940018931573,0.13015370118608208
0.7020100502512563,3.7197858155505723,0.12759031535680934
0.7045226130653266,3.7166349302065886,0.12503230039084315
0.7070351758793969,3.7138493976053106,0.1230656771511881
0.7095477386934673,3.7110638650040326,0.12109905391153299
0.7120603015075377,3.708278332402754,0.11913243067187787
0.714572864321608,3.705854684035376,0.1174320408435422
0.7170854271356784,3.703530033036109,0.1158044820604834
0.7195979899497487,3.701205382036843,0.11417692327742458
0.7221105527638191,3.698939137669479,0.11264480308381532
0.7246231155778895,3.696734719351474,0.11121370893382002
0.7271356783919598,3.694530301033469,0.10978261478382477
0.7296482412060301,3.692339521397309,0.10836382720051872
0.7321608040201004,3.6902582625686033,0.10704386332584584
0.7346733668341708,3.6881770037398973,0.10572389945117291
0.7371859296482413,3.6860957449111917,0.10440393557649998
0.7396984924623116,3.6841153522392616,0.1032601921305063
0.7422110552763819,3.682187829360526,0.10220881601483234
0.7447236180904522,3.6802603064817903,0.10115743989915839
0.7472361809045226,3.6783626544357353,0.10009085024463704
0.749748743718593,3.676688531902101,0.09891041458665445
0.7522613065326633,3.6750144093684667,0.0977299789286719
0.7547738693467336,3.673340286834833,0.09654954327068936
0.7572864321608039,3.6717089561296845,0.09537811703054892
0.7597989949748744,3.670121791182895,0.09421598947628938
0.7623115577889448,3.6685346262361054,0.09305386192202983
0.7648241206030151,3.6669474612893156,0.09189173436777033
0.7673366834170854,3.665512808025483,0.09070960156430692
0.7698492462311557,3.664122488225647,0.08952165345556239
0.7723618090452261,3.662732168425811,0.0883337053468178
0.7748743718592965,3.6613418486259754,0.0871457572380732
0.7773869346733668,3.6603609976487945,0.08582073486699554
0.7798994974874371,3.6593928541791527,0.08449145851582074
0.7824120603015075,3.658424710709511,0.08316218216464592
0.7849246231155779,3.6574952901685363,0.08185634354675966
0.7874371859296483,3.657118155988691,0.0808847859576211
0.7899497487437186,3.6567410218088456,0.07991322836848257
0.7924623115577889,3.656363887629,0.07894167077934405
0.7949748743718593,3.6558908082036514,0.0779592345561301
0.7974874371859296,3.6539571320785926,0.076811190366158
0.8,3.6520234559535334,0.07566314617618584
